#Depth	LID [m]	uncertainty %
0.000000000000000000e+00	99.9536945625392	0.2
1.000000000000000000e+00	99.9383772488149	0.2
2.000000000000000000e+00	99.9230599350905	0.2
3.000000000000000000e+00	99.9106496674574	0.2
4.000000000000000000e+00	99.9158889687708	0.2
5.000000000000000000e+00	99.9033584527869	0.2
6.000000000000000000e+00	99.8898053568331	0.2
7.000000000000000000e+00	99.8762523359173	0.2
8.000000000000000000e+00	99.8626992399636	0.2
9.000000000000000000e+00	99.8491461815288	0.2
1.000000000000000000e+01	99.8371425446685	0.2
1.100000000000000000e+01	99.8495788129591	0.2
1.200000000000000000e+01	99.8696668533778	0.2
1.300000000000000000e+01	99.8897549688346	0.2
1.400000000000000000e+01	99.9098430467724	0.2
1.500000000000000000e+01	99.9299310871911	0.2
1.600000000000000000e+01	99.9500191651289	0.2
1.700000000000000000e+01	99.934289217594	0.2
1.800000000000000000e+01	99.9077364307334	0.2
1.900000000000000000e+01	99.8811836438728	0.2
2.000000000000000000e+01	99.8546308570122	0.2
2.100000000000000000e+01	99.8280781076706	0.2
2.200000000000000000e+01	99.807381809447	0.2
2.300000000000000000e+01	99.7991802340946	0.2
2.400000000000000000e+01	99.8109749652396	0.2
2.500000000000000000e+01	99.8262462431678	0.2
2.600000000000000000e+01	99.8415174835771	0.2
2.700000000000000000e+01	99.8585904607433	0.2
2.800000000000000000e+01	99.9057062033504	0.2
2.900000000000000000e+01	99.9528220209954	0.2
3.000000000000000000e+01	99.9936674780664	0.2
3.100000000000000000e+01	100.024574605912	0.2
3.200000000000000000e+01	100.055481733758	0.2
3.300000000000000000e+01	100.086388861604	0.2
3.400000000000000000e+01	100.088953246794	0.2
3.500000000000000000e+01	100.091348383837	0.2
3.600000000000000000e+01	100.092510121727	0.2
3.700000000000000000e+01	100.086174440597	0.2
3.800000000000000000e+01	100.079838759468	0.2
3.900000000000000000e+01	100.073503078339	0.2
4.000000000000000000e+01	100.067947004225	0.2
4.100000000000000000e+01	100.062712955569	0.2
4.200000000000000000e+01	100.057478906914	0.2
4.300000000000000000e+01	100.049410824115	0.2
4.400000000000000000e+01	100.027002984777	0.2
4.500000000000000000e+01	100.004595107921	0.2
4.600000000000000000e+01	99.9779421453667	0.2
4.700000000000000000e+01	99.9304664456057	0.2
4.800000000000000000e+01	99.8829907083257	0.2
4.900000000000000000e+01	99.8355149710457	0.2
5.000000000000000000e+01	99.810205225718	0.2
5.100000000000000000e+01	99.808684543687	0.2
5.200000000000000000e+01	99.8111003912105	0.2
5.300000000000000000e+01	99.8632152010622	0.2
5.400000000000000000e+01	99.9153300109139	0.2
5.500000000000000000e+01	99.9674448582846	0.2
5.600000000000000000e+01	100.019559668136	0.2
5.700000000000000000e+01	100.062479587475	0.2
5.800000000000000000e+01	100.092730695847	0.2
5.900000000000000000e+01	100.109802247291	0.2
6.000000000000000000e+01	100.090446915155	0.2
6.100000000000000000e+01	100.071091545499	0.2
6.200000000000000000e+01	100.051736250881	0.2
6.300000000000000000e+01	100.036416010676	0.2
6.400000000000000000e+01	100.031021493316	0.2
6.500000000000000000e+01	100.025626975957	0.2
6.600000000000000000e+01	100.022732386169	0.2
6.700000000000000000e+01	100.020244164521	0.2
6.800000000000000000e+01	100.017755867835	0.2
6.900000000000000000e+01	100.01503881789	0.2
7.000000000000000000e+01	100.010384550129	0.2
7.100000000000000000e+01	100.005730244849	0.2
7.200000000000000000e+01	100.006317642097	0.2
7.300000000000000000e+01	100.024768128843	0.2
7.400000000000000000e+01	100.043218615589	0.2
7.500000000000000000e+01	100.061669102334	0.2
7.600000000000000000e+01	100.079976416629	0.2
7.700000000000000000e+01	100.098065070271	0.2
7.800000000000000000e+01	100.116153648876	0.2
7.900000000000000000e+01	100.128745808554	0.2
8.000000000000000000e+01	100.136174192638	0.2
8.100000000000000000e+01	100.143602576722	0.2
8.200000000000000000e+01	100.151030960807	0.2
8.300000000000000000e+01	100.154369025012	0.2
8.400000000000000000e+01	100.152926194877	0.2
8.500000000000000000e+01	100.151483364743	0.2
8.600000000000000000e+01	100.16495046718	0.2
8.700000000000000000e+01	100.180446633912	0.2
8.800000000000000000e+01	100.195942875681	0.2
8.900000000000000000e+01	100.211439042413	0.2
9.000000000000000000e+01	100.226935246664	0.2
9.100000000000000000e+01	100.221158786024	0.2
9.200000000000000000e+01	100.194094577863	0.2
9.300000000000000000e+01	100.152886649866	0.2
9.400000000000000000e+01	100.111678721869	0.2
9.500000000000000000e+01	100.070470756353	0.2
9.600000000000000000e+01	100.029262865875	0.2
9.700000000000000000e+01	100.006089826813	0.2
9.800000000000000000e+01	99.9897121514998	0.2
9.900000000000000000e+01	99.9909840076141	0.2
1.000000000000000000e+02	99.9922559012473	0.2
1.010000000000000000e+02	99.9935277948806	0.2
1.020000000000000000e+02	99.9947996885139	0.2
1.030000000000000000e+02	99.9960715821472	0.2
1.040000000000000000e+02	99.9973434382615	0.2
1.050000000000000000e+02	100.000164790988	0.2
1.060000000000000000e+02	100.008685127648	0.2
1.070000000000000000e+02	100.025911857619	0.2
1.080000000000000000e+02	100.04313862511	0.2
1.090000000000000000e+02	100.060365392601	0.2
1.100000000000000000e+02	100.077592122573	0.2
1.110000000000000000e+02	100.094818890063	0.2
1.120000000000000000e+02	100.103129345514	0.2
1.130000000000000000e+02	100.106530216502	0.2
1.140000000000000000e+02	100.105559787923	0.2
1.150000000000000000e+02	100.104589359344	0.2
1.160000000000000000e+02	100.103618930765	0.2
1.170000000000000000e+02	100.102648502186	0.2
1.180000000000000000e+02	100.101678111126	0.2
1.190000000000000000e+02	100.132326282929	0.2
1.200000000000000000e+02	100.167647744619	0.2
1.210000000000000000e+02	100.202969206309	0.2
1.220000000000000000e+02	100.238290705518	0.2
1.230000000000000000e+02	100.273612167208	0.2
1.240000000000000000e+02	100.308933666417	0.2
1.250000000000000000e+02	100.331047206826	0.2
1.260000000000000000e+02	100.316085197902	0.2
1.270000000000000000e+02	100.301123113939	0.2
1.280000000000000000e+02	100.286161105014	0.2
1.290000000000000000e+02	100.27119905857	0.2
1.300000000000000000e+02	100.256237012127	0.2
1.310000000000000000e+02	100.240041641568	0.2
1.320000000000000000e+02	100.21634881447	0.2
1.330000000000000000e+02	100.192978950807	0.2
1.340000000000000000e+02	100.169880311895	0.2
1.350000000000000000e+02	100.146781672983	0.2
1.360000000000000000e+02	100.123683034071	0.2
1.370000000000000000e+02	100.10058435764	0.2
1.380000000000000000e+02	100.074651647065	0.2
1.390000000000000000e+02	100.053771318214	0.2
1.400000000000000000e+02	100.083234377798	0.2
1.410000000000000000e+02	100.112697362345	0.2
1.420000000000000000e+02	100.14216042193	0.2
1.430000000000000000e+02	100.171623481514	0.2
1.440000000000000000e+02	100.201086466061	0.2
1.450000000000000000e+02	100.252715517598	0.2
1.460000000000000000e+02	100.280300151618	0.2
1.470000000000000000e+02	100.298522185256	0.2
1.480000000000000000e+02	100.316744143857	0.2
1.490000000000000000e+02	100.334966177495	0.2
1.500000000000000000e+02	100.353188211134	0.1
1.510000000000000000e+02	100.371410244772	0.1
1.520000000000000000e+02	100.380437387898	0.1
1.530000000000000000e+02	100.389997150552	0.1
1.540000000000000000e+02	100.418843435522	0.1
1.550000000000000000e+02	100.447689720492	0.1
1.560000000000000000e+02	100.476535930424	0.1
1.570000000000000000e+02	100.505382215394	0.1
1.580000000000000000e+02	100.536518396651	0.1
1.590000000000000000e+02	100.548750711732	0.1
1.600000000000000000e+02	100.560982951776	0.1
1.610000000000000000e+02	100.573215229338	0.1
1.620000000000000000e+02	100.585447544419	0.1
1.630000000000000000e+02	100.597679784463	0.1
1.640000000000000000e+02	100.609683308766	0.1
1.650000000000000000e+02	100.618752923384	0.1
1.660000000000000000e+02	100.625861758263	0.1
1.670000000000000000e+02	100.63297063066	0.1
1.680000000000000000e+02	100.640079503057	0.1
1.690000000000000000e+02	100.647188337936	0.1
1.700000000000000000e+02	100.654297247852	0.1
1.710000000000000000e+02	100.661262947798	0.1
1.720000000000000000e+02	100.668009949573	0.1
1.730000000000000000e+02	100.638917052307	0.1
1.740000000000000000e+02	100.608698660491	0.1
1.750000000000000000e+02	101.061091646397	0.1
1.760000000000000000e+02	101.995661126146	0.1
1.770000000000000000e+02	102.92965057223	0.1
1.780000000000000000e+02	103.859019963205	0.1
1.790000000000000000e+02	104.782555771612	0.1
1.800000000000000000e+02	105.782959454527	0.1
1.810000000000000000e+02	106.789916492696	0.1
1.820000000000000000e+02	107.797644676489	0.1
1.830000000000000000e+02	108.806331912387	0.1
1.840000000000000000e+02	109.815602582744	0.1
1.850000000000000000e+02	110.825644397645	0.1
1.860000000000000000e+02	110.816964612032	0.1
1.870000000000000000e+02	110.548971214445	0.1
1.880000000000000000e+02	110.280951133752	0.1
1.890000000000000000e+02	110.013280103006	0.1
1.900000000000000000e+02	109.745582480203	0.1
1.910000000000000000e+02	109.478233815869	0.1
1.920000000000000000e+02	109.234708967337	0.1
1.930000000000000000e+02	109.001187536037	0.1
1.940000000000000000e+02	108.767498838837	0.1
1.950000000000000000e+02	108.534018030059	0.1
1.960000000000000000e+02	108.300370093933	0.1
1.970000000000000000e+02	108.066930029537	0.1
1.980000000000000000e+02	107.833322773416	0.1
1.990000000000000000e+02	107.599923412866	0.1
2.000000000000000000e+02	107.368304252859	0.1
2.010000000000000000e+02	107.142303021589	0.1
2.020000000000000000e+02	106.925370629036	0.1
2.030000000000000000e+02	106.708575070663	0.1
2.040000000000000000e+02	106.491541222639	0.1
2.050000000000000000e+02	106.274644250383	0.1
2.060000000000000000e+02	105.713386917059	0.1
2.070000000000000000e+02	104.349024774083	0.1
2.080000000000000000e+02	102.990124755517	0.1
2.090000000000000000e+02	101.628246547664	0.1
2.100000000000000000e+02	100.265977403021	0.1
2.110000000000000000e+02	98.9031295544847	0.1
2.120000000000000000e+02	97.5400784732202	0.1
2.130000000000000000e+02	96.1766365279333	0.1
2.140000000000000000e+02	95.9953057426473	0.1
2.150000000000000000e+02	96.0959473534844	0.1
2.160000000000000000e+02	96.1942509409424	0.1
2.170000000000000000e+02	96.2925750199916	0.1
2.180000000000000000e+02	96.3909195188824	0.1
2.190000000000000000e+02	96.4892844734734	0.1
2.200000000000000000e+02	96.5810153333294	0.1
2.210000000000000000e+02	96.8835199360292	0.1
2.220000000000000000e+02	97.1871055548304	0.1
2.230000000000000000e+02	97.4921666478242	0.1
2.240000000000000000e+02	97.7971034440809	0.1
2.250000000000000000e+02	97.4280748491687	0.1
2.260000000000000000e+02	96.4395462031944	0.1
2.270000000000000000e+02	95.4513900502679	0.1
2.280000000000000000e+02	94.4639099003209	0.1
2.290000000000000000e+02	93.4753818642893	0.1
2.300000000000000000e+02	92.4831319709494	0.1
2.310000000000000000e+02	92.6615816422985	0.1
2.320000000000000000e+02	93.1245838457939	0.1
2.330000000000000000e+02	93.5875317329173	0.1
2.340000000000000000e+02	94.0684061039306	0.1
2.350000000000000000e+02	94.6004884832969	0.1
2.360000000000000000e+02	94.4931596684224	0.1
2.370000000000000000e+02	94.3854861831767	0.1
2.380000000000000000e+02	94.2778434528786	0.1
2.390000000000000000e+02	94.1700437595111	0.1
2.400000000000000000e+02	94.0618991111388	0.1
2.410000000000000000e+02	94.2438805796504	0.1
2.420000000000000000e+02	94.417094561902	0.1
2.430000000000000000e+02	94.5900977978782	0.1
2.440000000000000000e+02	94.7632663524003	0.1
2.450000000000000000e+02	94.9674047528955	0.1
2.460000000000000000e+02	95.1297652840623	0.1
2.470000000000000000e+02	95.2924227748644	0.1
2.480000000000000000e+02	95.4676837885102	0.1
2.490000000000000000e+02	95.6611729801867	0.1
2.500000000000000000e+02	95.8250678707945	0.1
2.510000000000000000e+02	96.2528981555513	0.1
2.520000000000000000e+02	96.6807832675531	0.1
2.530000000000000000e+02	97.2601091068492	0.1
2.540000000000000000e+02	98.1683748647941	0.1
2.550000000000000000e+02	99.0766455430425	0.1
2.560000000000000000e+02	99.0450217714563	0.1
2.570000000000000000e+02	99.0132090891164	0.1
2.580000000000000000e+02	98.9671530510438	0.1
2.590000000000000000e+02	98.9111064922257	0.1
2.600000000000000000e+02	98.8541002380394	0.1
2.610000000000000000e+02	99.7983459863959	0.1
2.620000000000000000e+02	100.741871735311	0.1
2.630000000000000000e+02	101.685054446392	0.1
2.640000000000000000e+02	102.62770566919	0.1
2.650000000000000000e+02	103.561537376603	0.1
2.660000000000000000e+02	104.135868142448	0.1
2.670000000000000000e+02	104.709943112402	0.1
2.680000000000000000e+02	105.246127323055	0.1
2.690000000000000000e+02	105.780249486682	0.1
2.700000000000000000e+02	106.313478764797	0.1
2.710000000000000000e+02	97.3138753215252	0.1
2.720000000000000000e+02	97.8102909729822	0.1
2.730000000000000000e+02	98.3056239008929	0.1
2.740000000000000000e+02	98.8002489010529	0.1
2.750000000000000000e+02	99.3670431035699	0.1
2.760000000000000000e+02	99.7296352105783	0.1
2.770000000000000000e+02	100.092045323737	0.1
2.780000000000000000e+02	100.46161119695	0.1
2.790000000000000000e+02	100.855943835768	0.1
2.800000000000000000e+02	106.104381315478	0.1
2.810000000000000000e+02	128.019727104509	0.1
2.820000000000000000e+02	123.89662120634	0.1
2.830000000000000000e+02	119.774594586599	0.1
2.840000000000000000e+02	115.65402182739	0.1
2.850000000000000000e+02	111.53452827002	0.1
2.860000000000000000e+02	106.866143546846	0.1
2.870000000000000000e+02	102.202986527903	0.1
2.880000000000000000e+02	97.5460565341379	0.1
2.890000000000000000e+02	92.8895403370252	0.1
2.900000000000000000e+02	88.2338122796537	0.1
2.910000000000000000e+02	86.5660908837495	0.1
2.920000000000000000e+02	87.0220967763119	0.1
2.930000000000000000e+02	87.4782300317003	0.1
2.940000000000000000e+02	87.9341165724892	0.1
2.950000000000000000e+02	89.7315845119828	0.1
2.960000000000000000e+02	91.1660228039792	0.1
2.970000000000000000e+02	92.6003290412552	0.1
2.980000000000000000e+02	94.0345031549952	0.1
2.990000000000000000e+02	89.1558487534057	0.1
3.000000000000000000e+02	90.8238413841334	0.1
3.010000000000000000e+02	93.0377954788825	0.1
3.020000000000000000e+02	95.2460380222283	0.1
3.030000000000000000e+02	97.4496367170287	0.1
3.040000000000000000e+02	99.6542751846459	0.1
3.050000000000000000e+02	101.85833824353	0.1
3.060000000000000000e+02	103.695489988171	0.1
3.070000000000000000e+02	105.532161377365	0.1
3.080000000000000000e+02	107.368352489532	0.1
3.090000000000000000e+02	109.20406328581	0.1
3.100000000000000000e+02	111.025097182614	0.1
3.110000000000000000e+02	99.5321032139053	0.1
3.120000000000000000e+02	99.092262892935	0.1
3.130000000000000000e+02	98.6650364563951	0.1
3.140000000000000000e+02	98.2367351818674	0.1
3.150000000000000000e+02	97.8075459385728	0.1
3.160000000000000000e+02	97.0101240072544	0.1
3.170000000000000000e+02	96.1402409614961	0.1
3.180000000000000000e+02	95.2525019919605	0.1
3.190000000000000000e+02	94.364681714217	0.1
3.200000000000000000e+02	93.4769677393135	0.1
3.210000000000000000e+02	93.7250366105492	0.1
3.220000000000000000e+02	93.9702965050582	0.1
3.230000000000000000e+02	94.069446671575	0.1
3.240000000000000000e+02	94.1668271658646	0.1
3.250000000000000000e+02	94.259909546354	0.1
3.260000000000000000e+02	93.9863425491661	0.1
3.270000000000000000e+02	93.7127760839389	0.1
3.280000000000000000e+02	93.4393974742018	0.1
3.290000000000000000e+02	93.1662066146593	0.1
3.300000000000000000e+02	92.8971857585355	0.1
3.310000000000000000e+02	92.5702155110096	0.1
3.320000000000000000e+02	92.2434447026811	0.1
3.330000000000000000e+02	91.9399487672174	0.1
3.340000000000000000e+02	91.6467064613455	0.1
3.350000000000000000e+02	91.3512404476086	0.1
3.360000000000000000e+02	91.511994536345	0.1
3.370000000000000000e+02	92.1244576648316	0.1
3.380000000000000000e+02	92.7366741084293	0.1
3.390000000000000000e+02	93.3484573661087	0.1
3.400000000000000000e+02	93.9910988017896	0.1
3.410000000000000000e+02	94.1187330470817	0.1
3.420000000000000000e+02	94.246430929534	0.1
3.430000000000000000e+02	94.3740443268512	0.1
3.440000000000000000e+02	94.5083946955675	0.1
3.450000000000000000e+02	94.6129589339205	0.1
3.460000000000000000e+02	94.8875862909946	0.1
3.470000000000000000e+02	95.1621690972988	0.1
3.480000000000000000e+02	95.436707352833	0.1
3.490000000000000000e+02	95.7112010575972	0.1
3.500000000000000000e+02	95.9771112714585	0.1
3.510000000000000000e+02	96.6466019351137	0.1
3.520000000000000000e+02	97.3157581589787	0.1
3.530000000000000000e+02	97.9701306264516	0.1
3.540000000000000000e+02	98.613878723464	0.1
3.550000000000000000e+02	99.2569467435619	0.1
3.560000000000000000e+02	98.4630620198199	0.1
3.570000000000000000e+02	97.678011258465	0.1
3.580000000000000000e+02	96.8933517724003	0.1
3.590000000000000000e+02	96.1092700188984	0.1
3.600000000000000000e+02	95.3182279339757	0.1
3.610000000000000000e+02	93.6233003263513	0.1
3.620000000000000000e+02	91.9299465910912	0.1
3.630000000000000000e+02	90.2501428818768	0.1
3.640000000000000000e+02	89.5760977624216	0.1
3.650000000000000000e+02	88.9024377860965	0.1
3.660000000000000000e+02	89.0295085744328	0.1
3.670000000000000000e+02	89.153637176885	0.1
3.680000000000000000e+02	89.2774723398025	0.1
3.690000000000000000e+02	89.3875146771377	0.1
3.700000000000000000e+02	89.4639382797745	0.1
3.710000000000000000e+02	89.7105226051924	0.1
3.720000000000000000e+02	89.3179325203915	0.1
3.730000000000000000e+02	88.9323251478349	0.1
3.740000000000000000e+02	88.5692363775215	0.1
3.750000000000000000e+02	88.2128753222955	0.1
3.760000000000000000e+02	87.67599634446	0.1
3.770000000000000000e+02	87.1394833051572	0.1
3.780000000000000000e+02	86.6033363042641	0.1
3.790000000000000000e+02	86.0673710628911	0.1
3.800000000000000000e+02	85.5319561063782	0.1
3.810000000000000000e+02	85.3585825945781	0.1
3.820000000000000000e+02	85.1937708040977	0.1
3.830000000000000000e+02	86.0932341183521	0.1
3.840000000000000000e+02	86.9924695790543	0.1
3.850000000000000000e+02	87.8914772520592	0.1
3.860000000000000000e+02	88.3301199703849	0.1
3.870000000000000000e+02	88.7789734548902	0.1
3.880000000000000000e+02	89.2324925947853	0.1
3.890000000000000000e+02	89.6862349141784	0.1
3.900000000000000000e+02	90.1398322832228	0.1
3.910000000000000000e+02	90.6155588811083	0.1
3.920000000000000000e+02	91.0869722717121	0.1
3.930000000000000000e+02	91.5412209157382	0.1
3.940000000000000000e+02	91.9952886232849	0.1
3.950000000000000000e+02	92.44917528929	0.1
3.960000000000000000e+02	92.7288708307635	0.1
3.970000000000000000e+02	93.0029831401506	0.1
3.980000000000000000e+02	93.2670845901994	0.1
3.990000000000000000e+02	93.5325050349263	0.1
4.000000000000000000e+02	93.797831415253	0.1
4.010000000000000000e+02	93.9821528883387	0.1
4.020000000000000000e+02	94.1663276247504	0.1
4.030000000000000000e+02	94.3503556244883	0.1
4.040000000000000000e+02	94.5342368875523	0.1
4.050000000000000000e+02	94.7208673613904	0.1
4.060000000000000000e+02	95.4225550929307	0.1
4.070000000000000000e+02	96.2232999566049	0.1
4.080000000000000000e+02	97.0385646852328	0.1
4.090000000000000000e+02	97.8553509778052	0.1
4.100000000000000000e+02	98.1650592532763	0.1
4.110000000000000000e+02	97.6876118640117	0.1
4.120000000000000000e+02	97.1181437654739	0.1
4.130000000000000000e+02	96.5284588875073	0.1
4.140000000000000000e+02	95.9389798258173	0.1
4.150000000000000000e+02	95.3497065072392	0.1
4.160000000000000000e+02	94.9100180424289	0.1
4.170000000000000000e+02	94.4679815797837	0.1
4.180000000000000000e+02	94.0401299594944	0.1
4.190000000000000000e+02	93.6161851060399	0.1
4.200000000000000000e+02	93.1926418055102	0.1
4.210000000000000000e+02	93.0044640911081	0.1
4.220000000000000000e+02	93.7353893099959	0.1
4.230000000000000000e+02	94.4659009827652	0.1
4.240000000000000000e+02	95.2009653633329	0.1
